Distance (m),Depth (m)
0.000000000000000000e+00,0.000000000000000000e+00
1.000000000000000000e+00,9.968782712849446823e-04
2.000000000000000000e+00,2.043967574857555054e-03
3.000000000000000000e+00,3.141167080515864640e-03
4.000000000000000000e+00,4.288375958057907833e-03
5.000000000000000000e+00,5.485493377281719027e-03
6.000000000000000000e+00,6.732418507985331313e-03
7.000000000000000000e+00,8.029050519966779084e-03
8.000000000000000000e+00,9.375288583024096734e-03
9.000000000000000000e+00,1.077103186695531865e-02
1.000000000000000000e+01,1.221617954155847750e-02
1.100000000000000000e+01,1.371063077663160767e-02
1.200000000000000000e+01,1.525428474197274356e-02
1.300000000000000000e+01,1.684704060737992129e-02
1.400000000000000000e+01,1.848879754265117178e-02
1.500000000000000000e+01,2.017945471758452944e-02
1.600000000000000000e+01,2.191891130197802517e-02
1.700000000000000000e+01,2.370706646562970032e-02
1.800000000000000000e+01,2.554381937833758581e-02
1.900000000000000000e+01,2.742906920989971603e-02
2.000000000000000000e+01,2.936271513011412190e-02
2.100000000000000000e+01,3.134465630877884129e-02
2.200000000000000000e+01,3.337479191569190512e-02
2.300000000000000000e+01,3.545302112065135125e-02
2.400000000000000000e+01,3.757924309345520714e-02
2.500000000000000000e+01,3.975335700390151411e-02
2.600000000000000000e+01,4.197526202178829963e-02
2.700000000000000000e+01,4.424485731691359808e-02
2.800000000000000000e+01,4.656204205907545080e-02
2.900000000000000000e+01,4.892671541807188523e-02
3.000000000000000000e+01,5.133877656370094966e-02
3.100000000000000000e+01,5.379812466576065766e-02
3.200000000000000000e+01,5.630465889404904362e-02
3.300000000000000000e+01,5.885827841836416274e-02
3.400000000000000000e+01,6.145888240850403555e-02
3.500000000000000000e+01,6.410637003426668257e-02
3.600000000000000000e+01,6.680064046545014511e-02
3.700000000000000000e+01,6.954159287185250615e-02
3.800000000000000000e+01,7.232912642327171682e-02
3.900000000000000000e+01,7.516314028950586701e-02
4.000000000000000000e+01,7.804353364035296337e-02
4.100000000000000000e+01,8.097020564561106803e-02
4.200000000000000000e+01,8.394305547507818765e-02
4.300000000000000000e+01,8.696198229855237050e-02
4.400000000000000000e+01,9.002688528583166483e-02
4.500000000000000000e+01,9.313766360671404954e-02
4.600000000000000000e+01,9.629421643099762840e-02
4.700000000000000000e+01,9.949644292848039417e-02
4.800000000000000000e+01,1.027442422689603951e-01
4.900000000000000000e+01,1.060375136222356657e-01
5.000000000000000000e+01,1.093761561581041986e-01
5.100000000000000000e+01,1.127600690463640976e-01
5.200000000000000000e+01,1.161891514568133554e-01
5.300000000000000000e+01,1.196633025592500066e-01
5.400000000000000000e+01,1.231824215234720993e-01
5.500000000000000000e+01,1.267464075192776818e-01
5.600000000000000000e+01,1.303551597164647191e-01
5.700000000000000000e+01,1.340085772848313428e-01
5.800000000000000000e+01,1.377065593941755040e-01
5.900000000000000000e+01,1.414490052142952647e-01
6.000000000000000000e+01,1.452358139149886873e-01
6.100000000000000000e+01,1.490668846660537505e-01
6.200000000000000000e+01,1.529421166372885443e-01
6.300000000000000000e+01,1.568614089984910753e-01
6.400000000000000000e+01,1.608246609194593502e-01
6.500000000000000000e+01,1.648317715699915142e-01
6.600000000000000000e+01,1.688826401198854632e-01
6.700000000000000000e+01,1.729771657389392869e-01
6.800000000000000000e+01,1.771152475969510198e-01
6.900000000000000000e+01,1.812967848637187240e-01
7.000000000000000000e+01,1.855216767090403784e-01
7.100000000000000000e+01,1.897898223027140729e-01
7.200000000000000000e+01,1.941011208145377587e-01
7.300000000000000000e+01,1.984554714143096088e-01
7.400000000000000000e+01,2.028527732718275189e-01
7.500000000000000000e+01,2.072929255568895790e-01
7.600000000000000000e+01,2.117758274392938234e-01
7.700000000000000000e+01,2.163013780888382864e-01
7.800000000000000000e+01,2.208694766753210026e-01
7.900000000000000000e+01,2.254800223685400062e-01
8.000000000000000000e+01,2.301329143382933318e-01
8.100000000000000000e+01,2.348280517543789858e-01
8.200000000000000000e+01,2.395653337865950583e-01
8.300000000000000000e+01,2.443446596047395281e-01
8.400000000000000000e+01,2.491659283786104850e-01
8.500000000000000000e+01,2.540290392780059081e-01
8.600000000000000000e+01,2.589338914727238872e-01
8.700000000000000000e+01,2.638803841325623734e-01
8.800000000000000000e+01,2.688684164273195121e-01
8.900000000000000000e+01,2.738978875267932267e-01
9.000000000000000000e+01,2.789686966007815516e-01
9.100000000000000000e+01,2.840807428190826878e-01
9.200000000000000000e+01,2.892339253514944475e-01
9.300000000000000000e+01,2.944281433678149762e-01
9.400000000000000000e+01,2.996632960378423638e-01
9.500000000000000000e+01,3.049392825313745337e-01
9.600000000000000000e+01,3.102560020182095757e-01
9.700000000000000000e+01,3.156133536681455243e-01
9.800000000000000000e+01,3.210112366509804138e-01
9.900000000000000000e+01,3.264495501365122232e-01
1.000000000000000000e+02,3.319281932945390978e-01
1.010000000000000000e+02,3.374470652948589056e-01
1.020000000000000000e+02,3.430060653072699028e-01
1.030000000000000000e+02,3.486050925015699575e-01
1.040000000000000000e+02,3.542440460475571040e-01
1.050000000000000000e+02,3.599228251150294877e-01
1.060000000000000000e+02,3.656413288737849765e-01
1.070000000000000000e+02,3.713994564936217713e-01
1.080000000000000000e+02,3.771971071443379064e-01
1.090000000000000000e+02,3.830341799957311943e-01
1.100000000000000000e+02,3.889105742175999469e-01
1.110000000000000000e+02,3.948261889797419766e-01
1.120000000000000000e+02,4.007809234519554842e-01
1.130000000000000000e+02,4.067746768040383376e-01
1.140000000000000000e+02,4.128073482057887933e-01
1.150000000000000000e+02,4.188788368270047191e-01
1.160000000000000000e+02,4.249890418374840939e-01
1.170000000000000000e+02,4.311378624070251742e-01
1.180000000000000000e+02,4.373251977054258277e-01
1.190000000000000000e+02,4.435509469024840890e-01
1.200000000000000000e+02,4.498150091679981033e-01
1.210000000000000000e+02,4.561172836717657386e-01
1.220000000000000000e+02,4.624576695835851958e-01
1.230000000000000000e+02,4.688360660732542873e-01
1.240000000000000000e+02,4.752523723105713804e-01
1.250000000000000000e+02,4.817064874653342321e-01
1.260000000000000000e+02,4.881983107073409878e-01
1.270000000000000000e+02,4.947277412063896818e-01
1.280000000000000000e+02,5.012946781322783485e-01
1.290000000000000000e+02,5.078990206548048558e-01
1.300000000000000000e+02,5.145406679437675157e-01
1.310000000000000000e+02,5.212195191689641405e-01
1.320000000000000000e+02,5.279354735001929866e-01
1.330000000000000000e+02,5.346884301072519774e-01
1.340000000000000000e+02,5.414782881599389253e-01
1.350000000000000000e+02,5.483049468280520866e-01
1.360000000000000000e+02,5.551683052813896069e-01
1.370000000000000000e+02,5.620682626897492984e-01
1.380000000000000000e+02,5.690047182229293066e-01
1.390000000000000000e+02,5.759775710507276658e-01
1.400000000000000000e+02,5.829867203429424105e-01
1.410000000000000000e+02,5.900320652693714640e-01
1.420000000000000000e+02,5.971135049998129718e-01
1.430000000000000000e+02,6.042309387040648572e-01
1.440000000000000000e+02,6.113842655519252656e-01
1.450000000000000000e+02,6.185733847131924534e-01
1.460000000000000000e+02,6.257981953576639000e-01
1.470000000000000000e+02,6.330585966551380839e-01
1.480000000000000000e+02,6.403544877754129283e-01
1.490000000000000000e+02,6.476857678882863567e-01
1.500000000000000000e+02,6.550523361635564035e-01
1.510000000000000000e+02,6.624540917710214361e-01
1.520000000000000000e+02,6.698909338804790448e-01
1.530000000000000000e+02,6.773627616617274860e-01
1.540000000000000000e+02,6.848694742845649053e-01
1.550000000000000000e+02,6.924109709187890038e-01
1.560000000000000000e+02,6.999871507341980381e-01
1.570000000000000000e+02,7.075979129005900425e-01
1.580000000000000000e+02,7.152431565877630515e-01
1.590000000000000000e+02,7.229227809655150994e-01
1.600000000000000000e+02,7.306366852036441095e-01
1.610000000000000000e+02,7.383847684719481164e-01
1.620000000000000000e+02,7.461669299402253763e-01
1.630000000000000000e+02,7.539830687782738128e-01
1.640000000000000000e+02,7.618330841558911271e-01
1.650000000000000000e+02,7.697168752428761307e-01
1.660000000000000000e+02,7.776343412090260809e-01
1.670000000000000000e+02,7.855853812241392342e-01
1.680000000000000000e+02,7.935698944580138470e-01
1.690000000000000000e+02,8.015877800804477316e-01
1.700000000000000000e+02,8.096389372612390334e-01
1.710000000000000000e+02,8.177232651701857868e-01
1.720000000000000000e+02,8.258406629770859153e-01
1.730000000000000000e+02,8.339910298517374532e-01
1.740000000000000000e+02,8.421742649639387679e-01
1.750000000000000000e+02,8.503902674834874498e-01
1.760000000000000000e+02,8.586389365801817553e-01
1.770000000000000000e+02,8.669201714238196077e-01
1.780000000000000000e+02,8.752338711841991525e-01
1.790000000000000000e+02,8.835799350311184241e-01
1.800000000000000000e+02,8.919582621343754569e-01
1.810000000000000000e+02,9.003687516637681743e-01
1.820000000000000000e+02,9.088113027890946105e-01
1.830000000000000000e+02,9.172858146801530221e-01
1.840000000000000000e+02,9.257921865067413325e-01
1.850000000000000000e+02,9.343303174386573540e-01
1.860000000000000000e+02,9.429001066456992319e-01
1.870000000000000000e+02,9.515014532976651118e-01
1.880000000000000000e+02,9.601342565643532501e-01
1.890000000000000000e+02,9.687984156155611259e-01
1.900000000000000000e+02,9.774938296210871069e-01
1.910000000000000000e+02,9.862203977507293384e-01
1.920000000000000000e+02,9.949780191742855218e-01
1.930000000000000000e+02,1.003766593061554024e+00
1.940000000000000000e+02,1.012586018582332548e+00
1.950000000000000000e+02,1.021436194906419459e+00
1.960000000000000000e+02,1.030317021203612571e+00
1.970000000000000000e+02,1.039228396643710139e+00
1.980000000000000000e+02,1.048170220396509755e+00
1.990000000000000000e+02,1.057142391631809675e+00
2.000000000000000000e+02,1.066144809519408376e+00
2.010000000000000000e+02,1.075177373229103450e+00
2.020000000000000000e+02,1.084239981930692709e+00
2.030000000000000000e+02,1.093332534793974853e+00
2.040000000000000000e+02,1.102454930988747250e+00
2.050000000000000000e+02,1.111607069684808158e+00
2.060000000000000000e+02,1.120788850051955832e+00
2.070000000000000000e+02,1.130000171259987862e+00
2.080000000000000000e+02,1.139240932478702950e+00
2.090000000000000000e+02,1.148511032877898685e+00
2.100000000000000000e+02,1.157810371627372881e+00
2.110000000000000000e+02,1.167138847896924236e+00
2.120000000000000000e+02,1.176496360856350343e+00
2.130000000000000000e+02,1.185882809675449012e+00
2.140000000000000000e+02,1.195298093524018723e+00
2.150000000000000000e+02,1.204742111571857288e+00
2.160000000000000000e+02,1.214214762988762963e+00
2.170000000000000000e+02,1.223715946944533339e+00
2.180000000000000000e+02,1.233245562608966894e+00
2.190000000000000000e+02,1.242803509151861441e+00
2.200000000000000000e+02,1.252389685743015235e+00
2.210000000000000000e+02,1.262003991552226090e+00
2.220000000000000000e+02,1.271646325749292039e+00
2.230000000000000000e+02,1.281316587504011117e+00
2.240000000000000000e+02,1.291014675986181137e+00
2.250000000000000000e+02,1.300740490365600799e+00
2.260000000000000000e+02,1.310493929812067915e+00
2.270000000000000000e+02,1.320274893495380075e+00
2.280000000000000000e+02,1.330083280585335537e+00
2.290000000000000000e+02,1.339918990251732556e+00
2.300000000000000000e+02,1.349781921664368722e+00
2.310000000000000000e+02,1.359671973993042737e+00
2.320000000000000000e+02,1.369589046407551747e+00
2.330000000000000000e+02,1.379533038077694673e+00
2.340000000000000000e+02,1.389503848173269107e+00
2.350000000000000000e+02,1.399501375864073083e+00
2.360000000000000000e+02,1.409525520319904635e+00
2.370000000000000000e+02,1.419576180710562019e+00
2.380000000000000000e+02,1.429653256205842826e+00
2.390000000000000000e+02,1.439756645975545535e+00
2.400000000000000000e+02,1.449886249189467957e+00
2.410000000000000000e+02,1.460041965017407906e+00
2.420000000000000000e+02,1.470223692629164081e+00
2.430000000000000000e+02,1.480431331194534295e+00
2.440000000000000000e+02,1.490664779883315916e+00
2.450000000000000000e+02,1.500923937865307645e+00
2.460000000000000000e+02,1.511208704310307294e+00
2.470000000000000000e+02,1.521518978388113119e+00
2.480000000000000000e+02,1.531854659268522934e+00
2.490000000000000000e+02,1.542215646121334549e+00
2.500000000000000000e+02,1.552601838116346666e+00
2.510000000000000000e+02,1.563013134423356654e+00
2.520000000000000000e+02,1.573449434212162767e+00
2.530000000000000000e+02,1.583910636652563264e+00
2.540000000000000000e+02,1.594396640914355956e+00
2.550000000000000000e+02,1.604907346167338877e+00
2.560000000000000000e+02,1.615442651581310063e+00
2.570000000000000000e+02,1.626002456326067769e+00
2.580000000000000000e+02,1.636586659571409585e+00
2.590000000000000000e+02,1.647195160487133991e+00
2.600000000000000000e+02,1.657827858243038577e+00
2.610000000000000000e+02,1.668484652008922042e+00
2.620000000000000000e+02,1.679165440954581978e+00
2.630000000000000000e+02,1.689870124249816197e+00
2.640000000000000000e+02,1.700598601064423177e+00
2.650000000000000000e+02,1.711350770568200286e+00
2.660000000000000000e+02,1.722126531930946891e+00
2.670000000000000000e+02,1.732925784322459473e+00
2.680000000000000000e+02,1.743748426912537175e+00
2.690000000000000000e+02,1.754594358870977366e+00
2.700000000000000000e+02,1.765463479367578303e+00
2.710000000000000000e+02,1.776355687572138464e+00
2.720000000000000000e+02,1.787270882654455217e+00
2.730000000000000000e+02,1.798208963784326597e+00
2.740000000000000000e+02,1.809169830131551304e+00
2.750000000000000000e+02,1.820153380865926707e+00
2.760000000000000000e+02,1.831159515157251061e+00
2.770000000000000000e+02,1.842188132175322846e+00
2.780000000000000000e+02,1.853239131089939429e+00
2.790000000000000000e+02,1.864312411070898623e+00
2.800000000000000000e+02,1.875407871287999573e+00
2.810000000000000000e+02,1.886525410911039646e+00
2.820000000000000000e+02,1.897664929109816656e+00
2.830000000000000000e+02,1.908826325054129303e+00
2.840000000000000000e+02,1.920009497913774510e+00
2.850000000000000000e+02,1.931214346858551423e+00
2.860000000000000000e+02,1.942440771058257409e+00
2.870000000000000000e+02,1.953688669682691170e+00
2.880000000000000000e+02,1.964957941901650074e+00
2.890000000000000000e+02,1.976248486884932820e+00
2.900000000000000000e+02,1.987560203802337000e+00
2.910000000000000000e+02,1.998892991823659759e+00
2.920000000000000000e+02,2.010246750118700909e+00
2.930000000000000000e+02,2.021621377857257151e+00
2.940000000000000000e+02,2.033016774209127409e+00
2.950000000000000000e+02,2.044432838344109271e+00
2.960000000000000000e+02,2.055869469432000329e+00
2.970000000000000000e+02,2.067326566642599506e+00
2.980000000000000000e+02,2.078804029145703947e+00
2.990000000000000000e+02,2.090301756111112574e+00
3.000000000000000000e+02,2.101819646708622980e+00
3.010000000000000000e+02,2.113357600108033640e+00
3.020000000000000000e+02,2.124915515479140815e+00
3.030000000000000000e+02,2.136493291991745203e+00
3.040000000000000000e+02,2.148090828815643061e+00
3.050000000000000000e+02,2.159708025120632868e+00
3.060000000000000000e+02,2.171344780076513103e+00
3.070000000000000000e+02,2.183000992853080469e+00
3.080000000000000000e+02,2.194676562620134330e+00
3.090000000000000000e+02,2.206371388547472723e+00
3.100000000000000000e+02,2.218085369804892792e+00
3.110000000000000000e+02,2.229818405562193462e+00
3.120000000000000000e+02,2.241570394989171877e+00
3.130000000000000000e+02,2.253341237255626517e+00
3.140000000000000000e+02,2.265130831531355859e+00
3.150000000000000000e+02,2.276939076986157495e+00
3.160000000000000000e+02,2.288765872789829015e+00
3.170000000000000000e+02,2.300611118112169784e+00
3.180000000000000000e+02,2.312474712122976506e+00
3.190000000000000000e+02,2.324356553992047214e+00
3.200000000000000000e+02,2.336256542889180388e+00
3.210000000000000000e+02,2.348174577984174505e+00
3.220000000000000000e+02,2.360110558446827156e+00
3.230000000000000000e+02,2.372064383446936375e+00
3.240000000000000000e+02,2.384035952154300197e+00
3.250000000000000000e+02,2.396025163738716657e+00
3.260000000000000000e+02,2.408031917369983788e+00
3.270000000000000000e+02,2.420056112217899624e+00
3.280000000000000000e+02,2.432097647452262201e+00
3.290000000000000000e+02,2.444156422242869109e+00
3.300000000000000000e+02,2.456232335759519714e+00
3.310000000000000000e+02,2.468325287172010718e+00
3.320000000000000000e+02,2.480435175650141044e+00
3.330000000000000000e+02,2.492561900363707839e+00
3.340000000000000000e+02,2.504705360482509580e+00
3.350000000000000000e+02,2.516865455176344746e+00
3.360000000000000000e+02,2.529042083615010039e+00
3.370000000000000000e+02,2.541235144968305271e+00
3.380000000000000000e+02,2.553444538406027142e+00
3.390000000000000000e+02,2.565670163097974577e+00
3.400000000000000000e+02,2.577911918213944720e+00
3.410000000000000000e+02,2.590169702923736050e+00
3.420000000000000000e+02,2.602443416397147047e+00
3.430000000000000000e+02,2.614732957803974855e+00
3.440000000000000000e+02,2.627038226314017955e+00
3.450000000000000000e+02,2.639359121097075267e+00
3.460000000000000000e+02,2.651695541322942606e+00
3.470000000000000000e+02,2.664047386161420228e+00
3.480000000000000000e+02,2.676414554782305277e+00
3.490000000000000000e+02,2.688796946355395789e+00
3.500000000000000000e+02,2.701194460050489354e+00
3.510000000000000000e+02,2.713606995037384895e+00
3.520000000000000000e+02,2.726034450485880001e+00
3.530000000000000000e+02,2.738476725565772263e+00
3.540000000000000000e+02,2.750933719446860604e+00
3.550000000000000000e+02,2.763405331298942613e+00
3.560000000000000000e+02,2.775891460291815882e+00
3.570000000000000000e+02,2.788392005595278889e+00
3.580000000000000000e+02,2.800906866379129667e+00
3.590000000000000000e+02,2.813435941813166696e+00
3.600000000000000000e+02,2.825979131067187566e+00
3.610000000000000000e+02,2.838536333310990312e+00
3.620000000000000000e+02,2.851107447714372967e+00
3.630000000000000000e+02,2.863692373447133122e+00
3.640000000000000000e+02,2.876291009679069255e+00
3.650000000000000000e+02,2.888903255579980289e+00
3.660000000000000000e+02,2.901529010319662483e+00
3.670000000000000000e+02,2.914168173067915202e+00
3.680000000000000000e+02,2.926820642994536037e+00
3.690000000000000000e+02,2.939486319269322578e+00
3.700000000000000000e+02,2.952165101062073749e+00
3.710000000000000000e+02,2.964856887542586694e+00
3.720000000000000000e+02,2.977561577880660337e+00
3.730000000000000000e+02,2.990279071246091824e+00
3.740000000000000000e+02,3.003009266808680522e+00
3.750000000000000000e+02,3.015752063738222244e+00
3.760000000000000000e+02,3.028507361204517245e+00
3.770000000000000000e+02,3.041275058377362228e+00
3.780000000000000000e+02,3.054055054426556115e+00
3.790000000000000000e+02,3.066847248521896940e+00
3.800000000000000000e+02,3.079651539833181406e+00
3.810000000000000000e+02,3.092467827530208879e+00
3.820000000000000000e+02,3.105296010782776506e+00
3.830000000000000000e+02,3.118135988760682764e+00
3.840000000000000000e+02,3.130987660633725689e+00
3.850000000000000000e+02,3.143850925571703758e+00
3.860000000000000000e+02,3.156725682744414563e+00
3.870000000000000000e+02,3.169611831321656137e+00
3.880000000000000000e+02,3.182509270473226515e+00
3.890000000000000000e+02,3.195417899368922399e+00
3.900000000000000000e+02,3.208337617178544932e+00
3.910000000000000000e+02,3.221268323071889039e+00
3.920000000000000000e+02,3.234209916218754977e+00
3.930000000000000000e+02,3.247162295788939890e+00
3.940000000000000000e+02,3.260125360952240481e+00
3.950000000000000000e+02,3.273099010878458337e+00
3.960000000000000000e+02,3.286083144737387496e+00
3.970000000000000000e+02,3.299077661698827768e+00
3.980000000000000000e+02,3.312082460932578520e+00
